t [ns],Omega(t) [rad/s],Area(t) [rad],|G>|^2,|X1>|^2,|X2>|^2,|XX>|^2,G_X1_out_H,G_X1_out_V,G_X2_out_H,G_X2_out_V,X1_XX_out_H,X1_XX_out_V,X2_XX_out_H,X2_XX_out_V
0.0,9.331472855152477e-09,0.0,1.0,0.0,0.0,0.0,0.0,0.0,0.0,0.0,0.0,0.0,0.0,0.0
0.0020000000000000005,1.0198012666494208e-08,1.9529485521646686e-11,1.0,1.8641882086386953e-24,1.864188335542165e-24,6.366293117668508e-22,7.571122245065527e-31,0.0,0.0,1.8641890926543893e-24,0.0,7.5711222426996865e-31,1.8641889657509197e-24,0.0
0.004000000000000001,1.114303999058498e-08,4.0870538178725875e-11,1.0,4.702724414812214e-24,4.702724734947296e-24,1.5737978541073558e-21,1.9099466621783798e-30,0.0,0.0,4.7027266448939574e-24,0.0,1.909946661581557e-30,4.702726324758877e-24,0.0
0.006,1.2173476544883378e-08,6.418705471419423e-11,1.0,7.541260620985733e-24,7.541261134352426e-24,2.510966396447861e-21,3.062781099850207e-30,0.0,0.0,7.541264197133525e-24,0.0,3.0627810988931453e-30,7.541263683766833e-24,0.0
0.008000000000000002,1.3296837141304724e-08,8.965736840038234e-11,1.0,1.063995135773388e-22,1.0639952084049007e-22,5.501813858078428e-20,2.9348807798884748e-25,0.0,0.0,1.0669300891838722e-22,0.0,2.934880778971413e-25,1.0669300165532764e-22,0.0
0.01,1.4521278941832224e-08,1.1747548448351927e-10,1.0,5.369795623822234e-22,5.36979599046239e-22,2.85685534509027e-19,1.6008793738444813e-24,0.0,0.0,5.385804784195833e-22,0.0,1.6008793733442732e-24,5.385804417560679e-22,0.0
0.012,1.5855654666971496e-08,1.47852418092323e-10,1.0,9.67559611187108e-22,9.67559677251997e-22,5.163529304372713e-19,2.908270669700121e-24,0.0,0.0,9.704679479207885e-22,0.0,2.908270668791417e-24,9.70467881856808e-22,0.0
0.014000000000000002,1.7309570062457797e-08,1.8101764282175227e-10,1.0,1.398139659991994e-21,1.3981397554577504e-21,7.47020326365514e-19,4.215661965555761e-24,0.0,0.0,1.402355417421989e-21,0.0,4.2156619642385605e-24,1.40235532195755e-21,0.0
0.016000000000000004,1.8893445952233118e-08,2.1722065883644318e-10,1.0,1.82871970879688e-21,1.8287198336635054e-21,9.776877222937583e-19,5.523053261411406e-24,0.0,0.0,1.8342428869231912e-21,0.0,5.523053259685704e-24,1.8342427620582914e-21,0.0
0.018000000000000002,2.06185852299206e-08,2.567326900185969e-10,1.0,2.2592997576017662e-21,2.259299911869262e-21,1.2083551182220018e-18,6.830444557267046e-24,0.0,0.0,2.2661303564243945e-21,0.0,6.830444555132842e-24,2.2661302021590332e-21,0.0
0.02,2.249724516692725e-08,2.998485204154447e-10,1.0,2.689879806406651e-21,2.6898799900750153e-21,1.4390225141502445e-18,8.137835853122686e-24,0.0,0.0,2.6980178259255952e-21,0.0,8.13783585057998e-24,2.6980176422597736e-21,0.0
0.022000000000000002,2.45427154430255e-08,3.468884810253974e-10,1.0,3.120459855211537e-21,3.1204600682807703e-21,1.6696899100784888e-18,9.445227148978325e-24,0.0,0.0,3.1299052954267975e-21,0.0,9.445227146027123e-24,3.129905082360515e-21,0.0
0.024,2.676940233492151e-08,3.982005988033445e-10,1.0,3.5510399040164215e-21,3.551040146486524e-21,1.9003573060067315e-18,1.0752618444833959e-23,0.0,0.0,3.561792764927998e-21,0.0,1.0752618441474261e-23,3.561792522461256e-21,0.0
0.026000000000000002,2.9192919530022813e-08,4.541629206682889e-10,1.0,3.9816199528213076e-21,3.981620224692279e-21,2.131024701934975e-18,1.2060009740689605e-23,0.0,0.0,3.9936802344292004e-21,0.0,1.2060009736921405e-23,3.993679962561997e-21,0.0
0.028000000000000004,3.1830186066536484e-08,5.151860262648481e-10,1.0,4.412200001626192e-21,4.412200302898032e-21,2.3616920978632177e-18,1.3367401036545239e-23,0.0,0.0,4.4255677039304e-21,0.0,1.3367401032368543e-23,4.425567402662737e-21,0.0
0.03,3.4699531937265394e-08,5.817157442686499e-10,1.0,4.842780050431077e-21,4.842780381103787e-21,2.592359493791462e-18,1.4674792332400878e-23,0.0,0.0,4.8574551734316026e-21,0.0,1.4674792327815686e-23,4.8574548427634776e-21,0.0
0.03200000000000001,3.78208119332125e-08,6.542360881391279e-10,1.0,5.273360099235963e-21,5.273360459309542e-21,2.8230268897197055e-18,1.5982183628256524e-23,0.0,0.0,5.289342642932805e-21,0.0,1.5982183623262824e-23,5.2893422828642195e-21,0.0
0.034,4.121552834448613e-08,7.332724284168266e-10,1.0,5.703940148040849e-21,5.703940537515297e-21,3.053694285647949e-18,1.7289574924112163e-23,0.0,0.0,5.721230112434007e-21,0.0,1.7289574918709968e-23,5.721229722964961e-21,0.0
0.036000000000000004,4.4906963180212895e-08,8.193949199415258e-10,1.0,6.134520196845735e-21,6.1345206157210535e-21,3.2843616815761932e-18,1.8596966219967806e-23,0.0,0.0,6.153117581935211e-21,0.0,1.859696621415711e-23,6.153117163065703e-21,0.0
0.038000000000000006,4.89203206163675e-08,9.132222037381059e-10,1.0,6.56510024565062e-21,6.565100693926807e-21,3.515029077504436e-18,1.9904357515823443e-23,0.0,0.0,6.5850050514364114e-21,0.0,1.990435750960425e-23,6.585004603166443e-21,0.0
0.04,5.328288043083451e-08,1.015425404785308e-09,1.0,6.995680294455506e-21,6.995680772132562e-21,3.7456964734326795e-18,2.1211748811679085e-23,0.0,0.0,7.016892520937614e-21,0.0,2.1211748805051393e-23,7.016892043267185e-21,0.0
0.042,5.8024163238827e-08,1.1267324484549696e-09,1.0,7.426260343260392e-21,7.426260850338317e-21,3.976363869360923e-18,2.2519140107534725e-23,0.0,0.0,7.448779990438816e-21,0.0,2.2519140100498533e-23,7.448779483367926e-21,0.0
0.044000000000000004,6.31761083991767e-08,1.247932720092973e-09,1.0,7.856840392065276e-21,7.85684092854407e-21,4.2070312652891665e-18,2.3826531403390362e-23,0.0,0.0,7.880667459940017e-21,0.0,2.382653139594567e-23,7.880666923468666e-21,0.0
0.046000000000000006,6.877326552328228e-08,1.379882094015432e-09,1.0,8.287420440870162e-21,8.287421006749825e-21,4.43769866121741e-18,2.5133922699246005e-23,0.0,0.0,8.312554929441219e-21,0.0,2.5133922691392815e-23,8.312554363569409e-21,0.0
0.048,7.485300058381301e-08,1.5235083601225276e-09,1.0,8.718000489675049e-21,8.71800108495558e-21,4.668366057145654e-18,2.6441313995101644e-23,0.0,0.0,8.74444239894242e-21,0.0,2.6441313986839956e-23,8.74444180367015e-21,0.0
0.05000000000000001,8.145571768992433e-08,1.679817078396265e-09,1.0,9.148580538479933e-21,9.148581163161335e-21,4.899033453073897e-18,2.7748705290957287e-23,0.0,0.0,9.176329868443622e-21,0.0,2.77487052822871e-23,9.176329243770891e-21,0.0
0.052000000000000005,8.862509767001723e-08,1.8498978937562068e-09,1.0,9.579160587284821e-21,9.57916124136709e-21,5.129700849002141e-18,2.9056096586812927e-23,0.0,0.0,9.608217337944824e-21,0.0,2.905609657773424e-23,9.608216683871633e-21,0.0
0.054,9.640835468219528e-08,2.034931346108419e-09,1.0,1.0009740636089705e-20,1.0009741319572845e-20,5.360368244930384e-18,3.0363487882668566e-23,0.0,0.0,1.0040104807446026e-20,0.0,3.036348787318138e-23,1.0040104123972375e-20,0.0
0.05600000000000001,1.0485651215692462e-07,2.236196212947539e-09,1.0,1.044032068489459e-20,1.04403213977786e-20,5.591035640858628e-18,3.1670879178524206e-23,0.0,0.0,1.0471992276947228e-20,0.0,3.167087916862852e-23,1.0471991564073114e-20,0.0
0.05800000000000001,1.140246994662264e-07,2.45507742457069e-09,1.0,1.0870900733699476e-20,1.0870901475984355e-20,5.821703036786871e-18,3.2978270474379846e-23,0.0,0.0,1.090387974644843e-20,0.0,3.297827046407566e-23,1.0903879004173855e-20,0.0
0.06,1.239724708093897e-07,2.6930745948463057e-09,1.0,1.130148078250436e-20,1.1301481554190107e-20,6.052370432715114e-18,3.4285661770235485e-23,0.0,0.0,1.133576721594963e-20,0.0,3.42856617595228e-23,1.1335766444274596e-20,0.0
0.062000000000000006,1.3476414790708198e-07,2.9518112135627775e-09,1.0,1.1732060831309247e-20,1.1732061632395863e-20,6.283037828643358e-18,3.5593053066091125e-23,0.0,0.0,1.1767654685450833e-20,0.0,3.5593053054969943e-23,1.1767653884375337e-20,0.0
0.06400000000000002,1.4646918820412452e-07,3.233044549673984e-09,1.0,1.2162640880114131e-20,1.2162641710601618e-20,6.5137052245716014e-18,3.6900444361946765e-23,0.0,0.0,1.2199542154952036e-20,0.0,3.690044435041708e-23,1.2199541324476079e-20,0.0
0.066,1.5916258039660776e-07,3.538676318274717e-09,1.0,1.2593220928919019e-20,1.2593221788807373e-20,6.744372620499845e-18,3.820783565780241e-23,0.0,0.0,1.2631429624453238e-20,0.0,3.8207835645864225e-23,1.2631428764576821e-20,0.0
0.068,1.7292526922176613e-07,3.870764167893091e-09,1.0,1.3023800977723903e-20,1.3023801867013128e-20,6.975040016428089e-18,3.951522695365805e-23,0.0,0.0,1.306331709395444e-20,0.0,3.951522694131137e-23,1.3063316204677561e-20,0.0
0.07000000000000002,1.8784461157958406e-07,4.231534048694442e-09,1.0,1.345438102652879e-20,1.3454381945218883e-20,7.205707412356333e-18,4.082261824951369e-23,0.0,0.0,1.3495204563455642e-20,0.0,4.082261823675851e-23,1.3495203644778303e-20,0.0
0.07200000000000001,2.040148661939635e-07,4.6233935264679896e-09,1.0,1.3884961075333676e-20,1.3884962023424637e-20,7.436374808284576e-18,4.213000954536933e-23,0.0,0.0,1.3927092032956842e-20,0.0,4.213000953220565e-23,1.3927091084879046e-20,0.0
0.074,2.2153771916884934e-07,5.0489461118308e-09,1.0,1.431554112413856e-20,1.4315542101630392e-20,7.667042204212819e-18,4.3437400841224963e-23,0.0,0.0,1.4358979502458045e-20,0.0,4.343740082765279e-23,1.4358978524979786e-20,0.0
0.07600000000000001,2.405228479515863e-07,5.5110066789512356e-09,1.0,1.4746121172943445e-20,1.4746122179836147e-20,7.897709600141062e-18,4.47447921370806e-23,0.0,0.0,1.4790866971959246e-20,0.0,4.4744792123099925e-23,1.4790865965080525e-20,0.0
0.078,2.6108852638244333e-07,6.012618053285266e-09,1.0,1.3342924588967662e-19,1.3342925499098656e-19,2.1051060752647258e-17,2.668005650936343e-22,0.0,0.0,1.3369605555604288e-19,0.0,2.668005650563258e-22,1.3369604645477026e-19,0.0
0.08,2.8336227368627833e-07,6.5570688533539875e-09,1.0,2.649761895374705e-19,2.6497620761053116e-19,3.561017500661391e-17,5.128699203285407e-22,0.0,0.0,2.6548907753079656e-19,0.0,5.128699202654108e-22,2.654890594577991e-19,0.0
0.08200000000000002,3.074815504503436e-07,7.14791267749061e-09,1.0,3.965231331852644e-19,3.9652316023007577e-19,5.016928926058056e-17,7.589392755634475e-22,0.0,0.0,3.972820995055503e-19,0.0,7.589392754744962e-22,3.9728207246082786e-19,0.0
0.084,3.335945048318142e-07,7.788988732772768e-09,0.9999999999999999,5.280700768330582e-19,5.280701128496202e-19,6.472840351454719e-17,1.0050086307983536e-21,0.0,0.0,5.290751214803038e-19,0.0,1.005008630683581e-21,5.290750854638565e-19,0.0
0.08600000000000001,3.6186077245056095e-07,8.484444010055144e-09,0.9999999999999999,6.596170204808522e-19,6.59617065469165e-19,7.928751776851384e-17,1.2510779860332606e-21,0.0,0.0,6.608681434550576e-19,0.0,1.2510779858926666e-21,6.608680984668855e-19,0.0
0.08800000000000001,3.924523336474032e-07,9.238757116153103e-09,0.9999999999999999,7.911639641286451e-19,7.911640180887086e-19,9.384663202248038e-17,1.4971473412681654e-21,0.0,0.0,7.926611654298103e-19,0.0,1.49714734110175e-21,7.926611114699133e-19,0.0
0.09,4.255544320267188e-07,1.0056763881827225e-08,0.9999999999999999,9.227109077764388e-19,9.22710970708253e-19,1.08405746276447e-16,1.7432166965030717e-21,0.0,0.0,9.244541874045637e-19,0.0,1.743216696310835e-21,9.244541244729418e-19,0.0
0.09200000000000001,4.6136655845513416e-07,1.094368487230908e-08,0.9999999999999999,1.0542578514242326e-18,1.0542579233277975e-18,1.2296486053041365e-16,1.989286051737978e-21,0.0,0.0,1.0562472093793174e-18,0.0,1.98928605151992e-21,1.0562471374759705e-18,0.0
0.09400000000000001,5.001035049562584e-07,1.1905154935720472e-08,1.0,1.1858047950720266e-18,1.1858048759473424e-18,1.3752397478438032e-16,2.2353554069728855e-21,0.0,0.0,1.1880402313540714e-18,0.0,2.2353554067290056e-21,1.1880401504789995e-18,0.0
0.096,5.419964932257711e-07,1.2947254933902502e-08,1.0,1.3173517387198207e-18,1.317351828566887e-18,1.5208308903834696e-16,2.4814247622077918e-21,0.0,0.0,1.3198332533288251e-18,0.0,2.481424761938091e-21,1.3198331634820285e-18,0.0
0.098,5.872943827923454e-07,1.407654580992062e-08,0.9999999999999998,1.4488986823676142e-18,1.4488987811864311e-18,1.6664220329231356e-16,2.7274941174426977e-21,0.0,0.0,1.4516262753035784e-18,0.0,2.7274941171471758e-21,1.4516261764850569e-18,0.0
0.10000000000000002,6.36264964169235e-07,1.5300105156882203e-08,0.9999999999999998,1.580445626015408e-18,1.5804457338059757e-18,1.812013175462802e-16,2.9735634726776044e-21,0.0,0.0,1.5834192972783319e-18,0.0,2.9735634723562607e-21,1.5834191894880856e-18,0.0
0.10200000000000001,6.891963426792453e-07,1.6625566463730686e-08,0.9999999999999999,3.466202712776646e-18,3.4662029500544938e-18,2.1667345094929446e-16,1.9317007538752274e-20,0.0,0.0,3.485519957589919e-18,0.0,1.9317007535425808e-20,3.485519720315398e-18,0.0
0.10400000000000001,7.46398418993935e-07,1.806116122540387e-08,0.9999999999999997,7.962650234646936e-18,7.96265078076842e-18,2.832692323804571e-16,5.961725196476989e-20,0.0,0.0,8.022268032722424e-18,0.0,5.961725195400443e-20,8.022267486611706e-18,0.0
0.10600000000000001,8.08204472806762e-07,1.9615764117204557e-08,0.9999999999999998,1.24590977565172e-17,1.2459098611482313e-17,3.498650138116193e-16,9.991749639078716e-20,0.0,0.0,1.2559016107854896e-17,0.0,9.991749637258274e-20,1.2559015252907988e-17,0.0
0.108,8.749728564608926e-07,2.1298941446472213e-08,0.9999999999999997,1.6955545278387485e-17,1.6955546442196234e-17,4.16460795242782e-16,1.4021774081680473e-19,0.0,0.0,1.7095764182987396e-17,0.0,1.4021774079116136e-19,1.709576301920429e-17,0.0
0.11000000000000001,9.470888057768291e-07,2.3121003108709936e-08,0.9999999999999997,2.1451992800257786e-17,2.145199427291017e-17,4.830565766739447e-16,1.8051798524282233e-19,0.0,0.0,2.163251225811991e-17,0.0,1.8051798520974005e-19,2.1632510785500608e-17,0.0
0.11200000000000002,1.0249663757735965e-06,2.5093058290260364e-08,0.9999999999999996,2.594844032212807e-17,2.594844210362409e-17,5.496523581051073e-16,2.208182296688399e-19,0.0,0.0,2.616926033325241e-17,0.0,2.2081822962831863e-19,2.616925855179691e-17,0.0
0.114,1.1090505094519552e-06,2.7227075175485917e-08,0.9999999999999994,3.044488784399836e-17,3.044488993433801e-17,6.162481395362699e-16,2.6111847409485743e-19,0.0,0.0,3.070600840838491e-17,0.0,2.611184740468972e-19,3.070600631809322e-17,0.0
0.11600000000000002,1.1998192483097223e-06,2.9535944933247596e-08,0.9999999999999993,3.494133536586865e-17,3.4941337765051933e-17,6.828439209674326e-16,3.01418718520875e-19,0.0,0.0,3.5242756483517407e-17,0.0,3.014187184654758e-19,3.524275408438952e-17,0.0
0.11800000000000001,1.297786093789372e-06,3.203355027534669e-08,0.9999999999999993,3.943778288773894e-17,3.9437785595765866e-17,7.494397023985953e-16,3.4171896294689263e-19,0.0,0.0,3.977950455864992e-17,0.0,3.417189628840545e-19,3.9779501850685834e-17,0.0
0.12,1.4035025294184562e-06,3.47348388985545e-08,0.9999999999999992,4.3934230409609205e-17,4.3934233426479757e-17,8.160354838297575e-16,3.820192073729099e-19,0.0,0.0,4.431625263378239e-17,0.0,3.820192073026328e-19,4.431624961698212e-17,0.0
0.122,1.5175607139947773e-06,3.7655902141967736e-08,0.9999999999999991,4.843067793147949e-17,4.8430681257193684e-17,8.826312652609202e-16,4.2231945179892744e-19,0.0,0.0,4.88530007089149e-17,0.0,4.223194517212114e-19,4.885299738327842e-17,0.0
0.12400000000000001,1.6405963567932948e-06,4.081405921275581e-08,0.9999999999999991,5.292712545334978e-17,5.292712908790761e-17,9.492270466920828e-16,4.626196962249451e-19,0.0,0.0,5.33897487840474e-17,0.0,4.6261969613979e-19,5.3389745149574727e-17,0.0
0.126,1.7732917864311668e-06,4.422794735598028e-08,0.9999999999999988,5.742357297522005e-17,5.742357691862152e-17,1.0158228281232452e-15,5.029199406509625e-19,0.0,0.0,5.792649685917989e-17,0.0,5.029199405583685e-19,5.792649291587102e-17,0.0
0.12800000000000003,1.9163792257232072e-06,4.791761836813466e-08,0.9999999999999983,7.701632871861383e-17,7.701633408112011e-17,1.420875350814878e-15,1.7619341282154382e-18,0.0,0.0,7.877826820960904e-17,0.0,1.7619341284889264e-18,7.877826284682927e-17,0.0
0.13,2.0706442855948714e-06,5.190464187945274e-08,0.9999999999999979,9.825130007803903e-17,9.82513069804272e-17,1.8627460768508606e-15,3.153523183723043e-18,0.0,0.0,1.0140483016483045e-16,0.0,3.1535231844032506e-18,1.0140482326176208e-16,0.0
0.132,2.236929691893876e-06,5.621221585694149e-08,0.9999999999999976,1.1948627143746434e-16,1.1948627987973436e-16,2.3046168028868453e-15,4.545112239230653e-18,0.0,0.0,1.2403139212005194e-16,0.0,4.54511224031758e-18,1.24031383676695e-16,0.0
0.13400000000000004,2.416139259758894e-06,6.086528480859427e-08,0.9999999999999971,1.407212427968896e-16,1.4072125277904147e-16,2.74648752892283e-15,5.936701294738262e-18,0.0,0.0,1.4665795407527338e-16,0.0,5.936701296231908e-18,1.4665794409162785e-16,0.0
0.136,2.609242131064313e-06,6.589066619941748e-08,0.9999999999999966,1.6195621415631485e-16,1.619562256783486e-16,3.188358254958814e-15,7.328290350245871e-18,0.0,0.0,1.6928451603049483e-16,0.0,7.328290352146235e-18,1.6928450450656071e-16,0.0
0.138,2.8172772913675725e-06,7.131718562184937e-08,0.9999999999999959,1.8319118551574009e-16,1.8319119857765571e-16,3.630228980994797e-15,8.719879405753477e-18,0.0,0.0,1.9191107798571628e-16,0.0,8.719879408060561e-18,1.9191106492149355e-16,0.0
0.14000000000000004,3.041358383741619e-06,7.717582129695857e-08,0.9999999999999954,2.0442615687516534e-16,2.0442617147696285e-16,4.0720997070307805e-15,1.0111468461261085e-17,0.0,0.0,2.1453763994093775e-16,0.0,1.0111468463974887e-17,2.1453762533642644e-16,0.0
0.14200000000000002,3.282678837881459e-06,8.349985851858166e-08,0.9999999999999951,2.256611282345906e-16,2.2566114437627e-16,4.5139704330667656e-15,1.1503057516768696e-17,0.0,0.0,2.3716420189615925e-16,0.0,1.1503057519889217e-17,2.371641857513593e-16,0.0
0.14400000000000002,3.5425173339343888e-06,9.03250546903975e-08,0.9999999999999947,2.468960995940159e-16,2.4689611727557715e-16,4.95584115910275e-15,1.2894646572276304e-17,0.0,0.0,2.597907638513807e-16,0.0,1.2894646575803544e-17,2.597907461662922e-16,0.0
0.14600000000000002,3.822243621618662e-06,9.768981564595046e-08,0.9999999999999941,2.6813107095344084e-16,2.68131090174884e-16,5.397711885138728e-15,1.4286235627783893e-17,0.0,0.0,2.8241732580660184e-16,0.0,1.428623563171785e-17,2.8241730658122475e-16,0.0
0.148,4.123324716370209e-06,1.0563538398393934e-07,0.9999999999999934,2.8936604231286605e-16,2.8936606307419107e-16,5.8395826111747106e-15,1.5677824683291498e-17,0.0,0.0,3.0504388776182324e-16,0.0,1.5677824687632174e-17,3.0504386699615756e-16,0.0
0.15,4.447331495491945e-06,1.142060401958015e-07,0.999999999999993,3.106010136722913e-16,3.1060103597349816e-16,6.281453337210694e-15,1.7069413738799106e-17,0.0,0.0,3.2767044971704464e-16,0.0,1.7069413743546502e-17,3.2767042741109043e-16,0.0
0.15200000000000002,4.795945718578829e-06,1.2344931740987228e-07,0.9999999999999918,3.795856582494402e-16,3.7958568548881515e-16,7.68282578062245e-15,2.0788216243620974e-17,0.0,0.0,4.0037390174825586e-16,0.0,2.0788216259440716e-17,4.003738744930612e-16,0.0
0.154,5.170967497858671e-06,1.334162306263098e-07,0.9999999999999885,5.196334052937996e-16,5.196334425288175e-16,1.051216964801518e-14,2.7970477169563585e-17,0.0,0.0,5.476039197411462e-16,0.0,2.7970477212328733e-17,5.476038824633632e-16,0.0
0.156,5.574323245522805e-06,1.4416152136969126e-07,0.9999999999999853,6.596811523381587e-16,6.596811995688197e-16,1.33415135154079e-14,3.515273809550618e-17,0.0,0.0,6.948339377340364e-16,0.0,3.515273816521672e-17,6.948338904336648e-16,0.0
0.15800000000000003,6.008074126630145e-06,1.5574391874184423e-07,0.9999999999999822,7.997288993825182e-16,7.997289566088221e-16,1.617085738280063e-14,4.233499902144879e-17,0.0,0.0,8.420639557269268e-16,0.0,4.233499911810475e-17,8.42063898403967e-16,0.0
0.16,6.474425047751569e-06,1.6822641791622595e-07,0.9999999999999793,9.397766464268779e-16,9.397767136488247e-16,1.9000201250193364e-14,4.951725994739141e-17,0.0,0.0,9.892939737198174e-16,0.0,4.951726007099276e-17,9.892939063742693e-16,0.0
0.162,6.9757342131855564e-06,1.8167657717716308e-07,0.999999999999976,1.0798243934712367e-15,1.0798244706888267e-15,2.1829545117586082e-14,5.6699520873334e-17,0.0,0.0,1.1365239917127074e-15,0.0,5.669952102388075e-17,1.1365239143445706e-15,0.0
